Pump Modulation Frequency (Hz),X (Vrms),Y (Vrms),R (Vrms),Theta (deg),Aux In 1,Aux In 2,Frequency
24999.99999999999,0.00156737,0.000848308,0.0017822107656848163,28.4235897262469,0.00200332,-0.000336422,25000.0
25225.9195094333,0.00157409,0.000852002,0.0017898789605897945,28.425194078417686,0.00166943,-0.00100927,25225.0
25453.88060385631,0.00157879,0.000857037,0.0017964104179211632,28.49506643947169,0.00200332,-0.00134569,25453.0
25683.9017326242,0.00158651,0.000861065,0.0018051168550991409,28.490525908862598,0.000667774,-0.00134569,25683.0
25916.00151181491,0.00159121,0.000864757,0.0018110091069230786,28.522255143292185,0.00233721,-0.000672844,25916.0
26150.19872573579,0.00159691,0.000866435,0.00181681892181384,28.48291792255769,0.00133555,-0.00100927,26150.0
26386.5123284438,0.00160262,0.000869457,0.0018232790232817946,28.48081658477885,-0.000333887,-0.0030278,26386.0
26624.96144527972,0.001609,0.000872478,0.0018303275555214768,28.46870090764064,0.00100166,-0.00134569,26625.0
26865.56537441565,0.00161303,0.000876507,0.0018357914559314634,28.51928762770718,0.000333887,-0.00134569,26865.0
27108.34358841711,0.0016184,0.000880536,0.0018424337500270126,28.54964343192672,0.00166943,-0.000672844,27108.0
27353.3157358189,0.00162209,0.000882214,0.0018464770503530182,28.540658362982533,0.00166943,-0.00168211,27353.0
27600.50164271532,0.00162646,0.00088557,0.0018519196461201665,28.567274329368924,0.00100166,-0.00100927,27600.0
27849.92131436474,0.00163082,0.000888256,0.0018570332674142083,28.57573082454011,0.00133555,-0.00134569,27849.0
28101.59493680864,0.00163686,0.000889935,0.0018631411239811992,28.532229697456305,0.0,-0.00269137,28101.0
28355.54287850533,0.00164056,0.000894634,0.0018686377558091195,28.604620963451506,0.00133555,-0.00100927,28355.0
28611.78569197841,0.00164559,0.000896649,0.0018740186094951094,28.585082231167068,0.00166943,-0.000336422,28611.0
28870.34411548006,0.00165029,0.000899671,0.0018795916903445987,28.597422334246158,0.000667774,-0.000672844,28870.0
29131.23907466966,0.00165465,0.000900676,0.0018839012154069758,28.560789080523364,0.000667774,-0.00100927,29131.0
29394.49168430701,0.00165902,0.000903698,0.0018891842896960232,28.577923629283454,0.00166943,-0.00134569,29394.0
29660.12324996141,0.00166238,0.000906048,0.0018932591079569674,28.591737230126455,0.00166943,-0.00168211,29660.0
29928.15526973592,0.00166607,0.000908062,0.0018974629575273306,28.59181181473943,0.0,-0.00134569,29928.0
30198.60943600723,0.0016711,0.000911083,0.0019033254022383555,28.59919910932618,0.00133555,-0.00168211,30198.0
30471.50763718126,0.00167513,0.000911755,0.0019071858023051425,28.5589716291167,0.00100166,-0.00134569,30471.0
30746.87195946467,0.00167782,0.000914777,0.001910993686358011,28.59999557968145,0.00100166,-0.00100927,30746.0
31024.72468865231,0.0016805,0.000917125,0.0019144708235623283,28.62329868076349,0.00166943,-0.000672844,31024.0
31305.08831193086,0.00168353,0.000918468,0.0019177739391091,28.61515129466718,0.00200332,-0.00100927,31305.0
31587.98551969871,0.00168688,0.000920149,0.0019215197947504308,28.61131307905467,0.00133555,-0.00100927,31588.0
31873.43920740257,0.00169125,0.000921154,0.0019258378121122584,28.575303828002777,0.000333887,-0.00134569,31873.0
32161.47247739012,0.0016936,0.000923505,0.0019290262690122842,28.603241816250144,-0.000333887,-0.00168211,32161.0
32452.10864077992,0.00169662,0.000925183,0.0019324810699193993,28.60405412177254,0.000667774,-0.00134569,32452.0
32745.37121934797,0.00170132,0.000927197,0.0019375717254362399,28.589801397400606,0.00133555,-0.00100927,32745.0
33041.28394743144,0.001704,0.000929547,0.0019410496698766136,28.612854963614264,0.00166943,-0.000672844,33041.0
33339.87077384945,0.00170635,0.000930218,0.0019434340590188798,28.597043939630062,0.00200332,-0.00100927,33339.0
33641.15586384137,0.00170937,0.000931896,0.0019468887268715763,28.597861367900915,0.00100166,-0.00201853,33641.0
33945.1636010225,0.00171273,0.000932569,0.0019501612950248845,28.56796871435419,0.00100166,-0.00134569,33945.0
34251.91858935756,0.00171508,0.000933912,0.0019528673849738426,28.569604664980538,0.00100166,-0.00134569,34252.0
34561.44565515178,0.00171844,0.000934247,0.001955978881218226,28.531154175076544,0.00200332,-0.000672844,34561.0
34873.76984906049,0.00172213,0.00093559,0.0019598623375340464,28.514123221603395,0.000667774,-0.00134569,34873.0
35188.91644811608,0.00172414,0.000937268,0.0019624296555607553,28.529157283581505,0.00200332,-0.00100927,35189.0
35506.910957774,0.00172515,0.000937268,0.0019633170917268228,28.515079587752428,0.000667774,-0.00134569,35507.0
35827.7791139769,0.00172784,0.000939282,0.0019666422959621296,28.529223706132385,0.000667774,-0.00134569,35827.0
36151.54688523748,0.00173052,0.000940289,0.0019694778570323278,28.517724619494263,0.00166943,-0.000672844,36151.0
36478.2404747402,0.00173455,0.000940625,0.0019731799271521604,28.470428388262757,0.00166943,-0.00100927,36478.0
36807.88632246195,0.00173455,0.000942303,0.001973980394457848,28.51324325847249,0.00133555,-0.00100927,36807.0
37140.51110731184,0.00173657,0.000943311,0.001976236617722263,28.510966847150975,-0.000333887,-0.00235495,37140.0
37476.14174929049,0.00173959,0.000943983,0.001979211230357392,28.486330413410553,0.00166943,-0.000672844,37476.0
37814.80541166853,0.00174127,0.000945661,0.001981488265123041,28.50580750378659,0.00100166,-0.00100927,37814.0
38156.52950318534,0.00174395,0.000945661,0.001983843775133106,28.468867793240722,0.00133555,-0.00100927,38156.0
38501.34168026682,0.00174664,0.000946667,0.00198668808056839,28.45739174827524,0.00100166,-0.00168211,38501.0
38849.26984926402,0.00174865,0.000946667,0.0019884554700688125,28.429793837558595,0.00233721,-0.00100927,38849.0
39200.34216871154,0.00175033,0.000947004,0.0019900933685472193,28.415299716283794,0.000333887,-0.00134569,39200.0
39554.58705160646,0.00175335,0.000947339,0.001992909297466853,28.382453338999525,0.00133555,-0.00134569,39554.0
39912.0331677079,0.00175536,0.000947339,0.001994677936339026,28.355007935142986,0.000667774,-0.00134569,39912.0
40272.70944585727,0.00175738,0.000948347,0.0019969342374987547,28.352934024183376,0.00133555,-0.00100927,40272.0
40636.6450763196,0.00175906,0.000948682,0.001998571869594913,28.338514460549273,0.00166943,-0.00134569,40636.0
41003.86951314591,0.00176208,0.000948682,0.002001230502363148,28.297471370236607,0.00166943,-0.000672844,41003.0
41374.41247655691,0.00176443,0.000949018,0.002003459073426803,28.274072942762878,0.00200332,-0.00134569,41374.0
41748.30395534872,0.00176678,0.000949018,0.0020055290751186633,28.242269832830026,0.00166943,-0.000336422,41748.0
42125.57420931932,0.00176879,0.000949353,0.0020074583374212036,28.223547076812665,0.00133555,-0.00168211,42125.0
42506.25377171794,0.00177081,0.000950025,0.0020095560458369644,28.213191913834862,0.00166943,-0.00100927,42506.0
42890.37345171611,0.00177249,0.000949688,0.0020108774385733715,28.182101794893242,0.0,-0.00168211,42890.0
43277.96433690104,0.00177383,0.000949353,0.0020119006143827847,28.155668106807052,0.00200332,-0.000672844,43278.0
43669.05779579163,0.00177517,0.000949688,0.0020132401226502757,28.146080711455415,0.00133555,-0.00134569,43669.0
44063.68548037723,0.00177719,0.000949353,0.002014863626906366,28.11058282585618,0.00100166,-0.00134569,44063.0
44461.87932867924,0.00177954,0.000949018,0.0020167790362754083,28.070732409702984,0.0,-0.00269137,44462.0
44863.67156733597,0.00177987,0.000950361,0.0020177024889454975,28.099973438322536,0.000667774,-0.000672844,44863.0
45269.09471421075,0.00178155,0.000949688,0.0020188679389460595,28.060667968968723,0.0,-0.00201853,45269.0
45678.18158102364,0.00178289,0.000949353,0.002019892975103399,28.034401986185173,0.0,-0.00134569,45678.0
46090.96527600725,0.00178424,0.000950025,0.0020214004790614845,28.03322918428739,0.00100166,-0.00168211,46091.0
46507.47920658578,0.00178726,0.000950696,0.002024381632488228,28.009821971896343,0.000333887,-0.00201853,46507.0
46927.75708207904,0.00178893,0.000950025,0.002025541446202414,27.970878773450004,0.00100166,-0.000672844,46927.0
47351.83291643059,0.0017886,0.000949688,0.0020250919229163637,27.96683834562002,0.00200332,-0.000336422,47351.0
47779.7410309605,0.00178927,0.000950025,0.002025841676344621,27.96636952650171,0.00133555,-0.00100927,47779.0
48211.5160571431,0.00179263,0.000948347,0.0020280246838218613,27.87998245442096,0.00133555,-0.00168211,48211.0
48647.19293940974,0.00179296,0.000948682,0.0020284730917495197,27.883988327402587,0.00133555,-0.000672844,48647.0
49086.80693797689,0.001798,0.000942303,0.0020299602823832543,27.658313790616972,-0.000333887,-0.00168211,49086.0
49530.3936316998,0.00179968,0.000940625,0.0020306706379299485,27.594374910261422,0.00133555,-0.000672844,49530.0
49977.98892095229,0.00180035,0.000941632,0.0020317310599274664,27.610790621260108,0.00100166,-0.00100927,49978.0
50429.62903053168,0.00180303,0.000941632,0.002034106228313237,27.575804293685366,0.00133555,-0.00134569,50429.0
50885.35051259093,0.00180303,0.000940625,0.0020336402385272147,27.550654802485404,0.00100166,-0.00134569,50885.0
51345.19024959679,0.00180337,0.000940962,0.002034097512426589,27.554642634104525,0.0,-0.00235495,51345.0
51809.18545731474,0.00180303,0.000940625,0.0020336402385272147,27.550654802485404,0.000333887,-0.00168211,51809.0
52277.37368782097,0.00180471,0.000939619,0.002034665123186879,27.503658248591243,0.00100166,-0.00134569,52277.0
52749.79283254154,0.00180639,0.000939619,0.002036155390354125,27.48182707127902,0.000333887,-0.00201853,52749.0
53226.481125319,0.00180773,0.000939282,0.002037188809900205,27.45602722259491,0.00133555,-0.00201853,53226.0
53707.47714550672,0.00180874,0.000938946,0.002037930274923856,27.4345512232676,0.00200332,-0.000336422,53707.0
54192.81982109127,0.00180874,0.000937941,0.002037467452006361,27.40946902997407,0.0026711,-0.00100927,54192.0
54682.5484318427,0.00181008,0.000936933,0.0020381935859273507,27.36697164307125,0.0,-0.00100927,54682.0
55176.7026124941,0.00181008,0.000936598,0.002038039619040081,27.358608147492923,0.00200332,-0.000672844,55176.0
55675.32235594858,0.00181243,0.00093626,0.002039971860833871,27.319844546367996,0.00133555,-0.00134569,55675.0
56178.44801651646,0.0018121,0.00093626,0.0020396786419495556,27.32409951511602,0.00100166,-0.00100927,56178.0
56686.1203131811,0.00181378,0.000935255,0.002040710669356703,27.27737943999223,0.00100166,-0.00100927,56686.0
57198.38033289435,0.00181411,0.000934917,0.0020408490421464963,27.264700253083884,0.00100166,-0.00134569,57198.0
57715.26953390185,0.00181378,0.000933912,0.002040095511809927,27.243855152520013,0.000667774,-0.00168211,57715.0
58236.82974909825,0.00181378,0.000932569,0.0020394810531166913,27.210310653037016,0.00100166,-0.00100927,58236.0
58763.10318941294,0.00181546,0.000932233,0.002040821776924305,27.180355276591488,0.00200332,-0.00134569,58763.0
59294.13244722606,0.00181579,0.000931561,0.002040808434772861,27.159340959329413,0.000333887,-0.00235495,59294.0
59829.96049981609,0.00181646,0.000930555,0.0020409457844830794,27.125626399249903,0.000333887,-0.00100927,59830.0
60370.6307128374,0.00181546,0.000929883,0.002039749376586915,27.121633568081652,0.000333887,-0.00168211,60370.0
60916.18684383034,0.00181646,0.000929212,0.0020403338180770823,27.092061820446972,0.00200332,-0.000672844,60916.0
61466.67304576257,0.00181646,0.00092854,0.002040027859120464,27.075258881582435,0.000667774,-0.00134569,61466.0
62022.13387060242,0.00181747,0.000927869,0.002040621939210533,27.045576679266578,-0.000333887,-0.00134569,62022.0
62582.61427292456,0.00181915,0.000927532,0.0020419653508321096,27.015718672851772,0.00100166,-0.00134569,62582.0
63148.15961354828,0.00181948,0.000925183,0.0020411935190818385,26.95277178929171,0.0,-0.00201853,63148.0
63718.81566320864,0.00182015,0.000924176,0.0020413346455503915,26.91905445763791,0.00133555,-0.00100927,63718.0
64294.62860626077,0.00181881,0.000923505,0.00203983610095897,26.919288202942397,0.00233721,-0.00100927,64294.0
64875.6450444177,0.00182015,0.000921827,0.002040272242061074,26.860235705093032,0.000667774,-0.00134569,64875.0
65461.91200052173,0.00182049,0.000920819,0.0020401204533451755,26.83066631877072,0.00100166,-0.00201853,65462.0
66053.4769223507,0.00182015,0.000919811,0.00203936219087516,26.80970793038239,0.000333887,-0.00168211,66053.0
66650.38768645718,0.00182083,0.000919141,0.002039667183602771,26.784292808858456,0.00100166,-0.00100927,66650.0
67252.69260204374,0.00182049,0.000918468,0.0020390603931154196,26.77171695696272,0.000333887,-0.00100927,67252.0
67860.44041487265,0.0018215,0.000918133,0.0020398113964636556,26.750537258941392,0.0,-0.00134569,67860.0
68473.68031121089,0.00181948,0.000917125,0.002037553853421882,26.750794012159936,0.00133555,-0.00100927,68473.0
69092.46192181097,0.00181948,0.000915447,0.0020367991139420144,26.708643066775927,0.00100166,-0.00100927,69092.0
69716.83532592758,0.00181915,0.000914777,0.0020362032973111105,26.695973563606664,0.00100166,-0.000672844,69716.0
70346.85105537061,0.00181982,0.000913434,0.00203619906739911,26.653743182793768,0.0,-0.00168211,70347.0
70982.56009859491,0.00182083,0.000913098,0.002036951151677033,26.63255093805759,0.000333887,-0.00100927,70982.0
71624.01390482656,0.00182049,0.000911755,0.0020360454437126424,26.60305819477888,0.000333887,-0.00134569,71624.0
72271.26438822747,0.00181982,0.000910077,0.0020346953326049566,26.569257270679064,0.00100166,-0.00168211,72271.0
72924.36393209599,0.00181948,0.00090907,0.0020339409254341314,26.548170697988724,0.00166943,-0.000672844,72924.0
73583.365393107,0.00182083,0.000908062,0.0020346986542903135,26.505786246296882,0.000333887,-0.00168211,73583.0
74248.3221055895,0.00181948,0.000906384,0.0020327418410078465,26.480444881335103,0.00100166,-0.000672844,74248.0
74919.28788584314,0.00182015,0.000905378,0.0020328933069953476,26.44664636349709,0.00133555,-0.00201853,74919.0
75596.31703649364,0.00181982,0.00090437,0.0020321491077527802,26.42534209333117,0.00200332,-0.000672844,75596.0
76279.46435088762,0.00181915,0.000903027,0.0020309516783784316,26.399825270232682,0.000667774,-0.00168211,76279.0
76968.78511752714,0.00181848,0.000902357,0.0020300535791627486,26.39129573515592,0.00200332,-0.000672844,76968.0
77664.3351245443,0.00181848,0.000901014,0.00202945698802522,26.357332486999365,-0.000667774,-0.00201853,77664.0
78366.17066421619,0.00181915,0.000900006,0.0020296102317103456,26.323435549144303,0.00133555,-0.00168211,78366.0
79074.34853752125,0.00181881,0.000899334,0.002029007500620144,26.31068501047559,0.0,-0.00134569,79074.0
79788.92605873545,0.0018178,0.00089732,0.0020272098946400815,26.27231283544606,0.000667774,-0.00168211,79789.0
80509.96106007145,0.0018178,0.000896649,0.0020269129917194935,26.255305692891906,0.0026711,-0.00134569,80510.0
81237.51189635889,0.00181848,0.000895977,0.0020272257453195796,26.229770435812444,0.00233721,-0.00134569,81237.0
81971.63744976721,0.0018178,0.000894299,0.0020258745064948513,26.195699370075527,0.00133555,-0.00134569,81971.0
82712.39713457106,0.0018178,0.000893628,0.002025578382837079,26.178668326605507,0.00133555,-0.00201853,82712.0
83459.85090195887,0.00181646,0.000891613,0.0020234873061257997,26.144204560786573,0.000667774,-0.00168211,83459.0
84214.05924488476,0.00181646,0.000891278,0.0020233396977219916,26.135687688592355,0.000333887,-0.00201853,84214.0
84975.08320296444,0.00181646,0.00089027,0.0020228958856010905,26.110057077081553,0.00100166,-0.00168211,84975.0
85742.98436741516,0.00181579,0.000889935,0.0020221467552631223,26.109889990298377,0.00100166,-0.00134569,85743.0
86517.82488604035,0.00181445,0.000888592,0.002020352590001136,26.09241295325377,0.00233721,-0.00100927,86518.0
87299.66746826,0.00181411,0.000887921,0.0020197521458139227,26.079561836284906,0.00133555,-0.000672844,87299.0
88088.57539018481,0.00181411,0.000886243,0.0020190150234048426,26.036791435943506,0.00133555,-0.00168211,88088.0
88884.61249973798,0.00181411,0.00088557,0.00201871970316016,26.01962880793221,0.00200332,-0.000672844,88884.0
89687.84322182239,0.00181411,0.000884227,0.0020181309069703633,25.98536425048333,0.00233721,-0.000336422,89688.0
90498.33256353461,0.00181378,0.000882884,0.0020172462091778325,25.955181860158806,0.00166943,-0.000336422,90498.0
91316.14611942606,0.0018131,0.000882549,0.0020164880701331986,25.95507978471748,-0.00100166,-0.00235495,91316.0
92141.3500768117,0.00181277,0.000882549,0.0020161914309555543,25.95918318625471,0.00166943,-0.00100927,92141.0
92974.01122112673,0.00181109,0.0008802,0.0020136531962056522,25.92001416560591,0.000333887,-0.00168211,92974.0
93814.1969413315,0.00181042,0.000879863,0.002012903199042978,25.919723429552317,0.00133555,-0.00134569,93814.0
94661.9752353661,0.00181042,0.000878857,0.002012463667037527,25.89396316528972,0.00100166,-0.00134569,94662.0
95517.41471565257,0.00181076,0.000878857,0.0020127695820266528,25.889735890965888,0.00133555,-0.00134569,95517.0
96380.58461464848,0.00180908,0.000879528,0.0020115516411217576,25.927824533868243,0.000667774,-0.00134569,96380.0
97251.55479044995,0.00180706,0.000877514,0.002008854550712088,25.901355626923422,0.000667774,-0.00201853,97251.0
98130.39573244535,0.00180639,0.000877179,0.002008105526128863,25.90110657143925,0.00200332,-0.000672844,98130.0
99017.17856702016,0.0018084,0.000875164,0.0020090352667093874,25.824373549958775,0.000333887,-0.00201853,99017.0
99911.97506331342,0.00180807,0.000872478,0.0020075694207287056,25.759474346098962,0.00133555,-0.000672844,99912.0
100814.857639026,0.00180605,0.000872143,0.0020056046208000314,25.775935150913178,0.00133555,-0.000672844,100815.0
101725.8993662819,0.00180538,0.000871135,0.0020045630571738434,25.75831669431037,0.00133555,-0.00134569,101726.0
102645.1739775416,0.00180337,0.000868786,0.0020017323355209053,25.722765211466957,0.000667774,-0.00134569,102645.0
103572.7558715695,0.00180404,0.000868786,0.0020023360407655276,25.714443293853602,0.0,-0.00168211,103573.0
104508.720119456,0.00180236,0.000867778,0.002000385083029144,25.709309578827135,0.00100166,-0.00201853,104508.0
105453.1424706916,0.00180135,0.000867108,0.00199918439386162,25.704565042218384,0.00100166,-0.000672844,105453.0
106406.0993592988,0.00179968,0.000866435,0.0019973876719736917,25.707949127554027,-0.000667774,-0.00168211,106406.0
107367.6679100173,0.00179934,0.000865093,0.001996499540589439,25.677480706365067,0.0,-0.00134569,107368.0
108337.9259445465,0.00179833,0.000864087,0.001995153412397235,25.664011884303513,-0.000333887,-0.00235495,108338.0
109316.9519878431,0.00179699,0.00086375,0.0019937997153386404,25.671958922631323,0.00133555,-0.000672844,109317.0
110304.8252744766,0.00179531,0.000862071,0.0019915582358939242,25.64936314372134,0.00133555,-0.00235495,110305.0
111301.625755042,0.0017943,0.000862071,0.001990647896881966,25.661945380052618,0.00133555,-0.00134569,111301.0
112307.4341026301,0.0017933,0.000861065,0.001989310921394288,25.648301612974617,0.00133555,-0.00168211,112307.0
113322.3317193573,0.00179061,0.000859722,0.001986304642216942,25.646965057104634,0.00133555,-0.00168211,113322.0
114346.4007429524,0.00179162,0.000859387,0.0019870703000774426,25.625652381906146,0.00133555,-0.000336422,114346.0
115379.7240534048,0.00179095,0.000859722,0.00198661108956697,25.64272164764603,0.00100166,-0.000672844,115379.0
116422.3852796727,0.00178961,0.000857707,0.001984531508604384,25.607018093789573,0.000333887,-0.00100927,116422.0
117474.4688064502,0.00178759,0.000856701,0.0019822750885664943,25.60603131165954,0.000667774,-0.00134569,117474.0
118536.0597809979,0.00178658,0.000855694,0.001980929119640956,25.592391420795074,0.00100166,-0.00168211,118536.0
119607.2441200331,0.00178524,0.000854686,0.0019792852545627987,25.582830565125153,0.00166943,-0.000672844,119607.0
120688.1085166838,0.00178491,0.000854015,0.0019786978715246413,25.5694319798268,0.00233721,-0.00100927,120688.0
121778.7404475047,0.00178323,0.000853343,0.0019768923773858774,25.57287797426567,0.0,-0.00134569,121779.0
